'x', 'y', 'distance', 'angle'
3.978948390782342, 0.409841071014862, 4, 0.1026403931301418
21.87975481930198, 2.296936513399829, 22, 0.1050316411734182
39.79851416092175, 4.005170589021254, 40, 0.09504492713252777
55.73288528139989, 5.452864270319945, 56, 0.09060477002201328
73.49120590898817, 8.392600395854473, 74, 0.1640535618889443
92.87597172426874, 13.31508496025177, 94, 0.2486794310262415
108.129185280943, 18.1461796803426, 110, 0.3067305661916766
123.8974037673883, 24.49939034611804, 127, 0.3830145377936391
140.4038777432613, 33.90876422984853, 146, 0.5180997915203251
154.5090923886734, 43.3978590131696, 163, 0.5921931320388478
168.3507087731844, 53.26749202884125, 180, 0.6194244640005958
182.3279342554535, 62.94412201132, 197, 0.6055489807903378
195.3986004655322, 72.17221416651151, 213, 0.6147517735012973
208.3414469843492, 81.57873977325627, 229, 0.628470078683163
220.2876429467398, 90.65003527214532, 244, 0.6494557320943978
233.8778579079844, 100.863068969689, 261, 0.6444598137218033
246.0484866429552, 109.630953332265, 276, 0.6242952780305599
259.878092231079, 119.5174091824134, 293, 0.6206403721683504
272.653861007051, 129.1496328188796, 309, 0.6460209641843546
286.1815389827863, 139.4453566197984, 326, 0.6505583588618046
298.1584510580343, 148.4760585383526, 341, 0.6460620642389263
313.1560859369053, 160.141003803551, 360, 0.6610480768428451
325.7680281133466, 169.9867599724849, 376, 0.6628422914634856
338.7069419975981, 179.3986942846188, 392, 0.6288880336619739
352.526455322738, 189.2992524232431, 409, 0.6216604616183795
364.555041171452, 198.2610113175739, 424, 0.6403181438344612
377.9271925110517, 208.7579427049291, 441, 0.6655178466542708
390.5472186634721, 218.5933349143035, 457, 0.6620207971716817
404.3472072056303, 228.5210897579881, 474, 0.6236298451648882
420.4335263101242, 240.4051268526961, 494, 0.6362729565063909
434.706190577583, 251.3728547262532, 512, 0.6552004722595207
448.1577502509373, 261.7678315109407, 529, 0.6579160564586237
460.8083548731502, 271.5638614564056, 545, 0.658905541962821
473.2625874124266, 281.6083670120628, 561, 0.6786999342100507
486.4607865289202, 292.3231950592777, 578, 0.6819189683285519
498.499522814767, 302.862114768614, 594, 0.7190663773419161
510.6734593898343, 314.7278329629013, 611, 0.7725776176517871
521.160313657861, 326.8119501239176, 627, 0.8560466328483599
530.2243775132773, 338.7636339561203, 642, 0.9219458068209169
539.1101570758921, 352.0693816451687, 658, 0.9819990577601745
547.6427526402209, 367.9185082121312, 676, 1.076930752260989
554.6499153018981, 383.4072031678981, 693, 1.145944222057202
560.6832008533673, 399.3005812057613, 710, 1.207990133610568
565.8486485948727, 416.5434971317228, 728, 1.279734744025828
569.5953701410312, 433.125477642372, 745, 1.348576522414529
571.9526574513552, 450.9704544295966, 763, 1.439458659530722
572.9420229513997, 467.9416404785244, 780, 1.512565453239149
573.4904951152015, 485.9332823792942, 798, 1.540320933912507
572.6734685244128, 504.9157076076454, 817, 1.613810989810233
571.3230321392845, 520.8586157981143, 833, 1.655299133506386
569.7252620186581, 535.7732773980849, 848, 1.677516797351067
566.6995074937478, 555.5430727828374, 868, 1.722667190960415
563.4509906700055, 571.2098254280368, 884, 1.775250060440691
559.8595816717562, 585.7735399750641, 899, 1.812572244052493
554.6771237535319, 603.0113510288445, 917, 1.862844557864559
549.147521717336, 619.0869070478847, 934, 1.902094316192365
542.2144287257185, 636.7767974254304, 953, 1.944321325433127
535.4718996919376, 652.3825111940672, 970, 1.97862754258249
528.5200711238121, 666.7933432158276, 986, 2.020267491950814
519.1469381318972, 683.3204233546748, 1005, 2.08670193253977
510.7635160017008, 696.9482710712781, 1021, 2.122294513948384
501.4481725920747, 711.1688328450174, 1038, 2.150721537774189
492.3541720084899, 724.3331464764134, 1054, 2.175325839424566
483.1787668153543, 737.440851826389, 1070, 2.181522877352362
473.3442681563245, 750.0615743146438, 1086, 2.232746321760428
461.700511342023, 763.7882974213946, 1104, 2.274276256978269
450.1383903596955, 776.2509359217293, 1121, 2.318729135284634
438.4146865491683, 788.5616941828206, 1138, 2.331773816920722
426.2484659287222, 800.4353236117119, 1155, 2.368364979797298
413.5830962879409, 811.7750066699976, 1172, 2.411363764399351
399.681569383165, 823.2094961520774, 1190, 2.453261227584519
383.901859330855, 833.7925368618652, 1209, 2.550820895178163
370.4348578657203, 842.431973853826, 1225, 2.571197351238819
356.7843136585368, 850.7783888236037, 1241, 2.592807759640571
341.9016259585366, 858.9945683995541, 1258, 2.637167030039277
327.5653181398327, 866.0988120698804, 1274, 2.68151774316241
312.0737910967324, 873.0997112887588, 1291, 2.717144899906372
296.4538512111243, 879.8092178257546, 1308, 2.735876524636883
278.5047684246433, 886.0406243382565, 1327, 2.807440048101238
262.1041806417117, 890.5150763018328, 1344, 2.875251824237934
241.5861647263034, 894.9884444842041, 1365, 2.926930311339732
224.8797554071649, 898.134217467336, 1382, 2.955474522802845
210.0874329391779, 900.6216249536735, 1397, 2.974995922536665
192.2926538645045, 903.3319455405351, 1415, 2.990444428030599
175.4356167543309, 905.5320136908954, 1432, 3.011812877792332
159.5577081431938, 907.5048335347683, 1448, 3.017976827522682
142.6828523029477, 909.5637751004553, 1465, 3.02018037507241
126.822913035143, 911.6761970331064, 1481, 3.009179684818123
110.0358267556213, 914.3583107972661, 1498, 2.983159277479807
94.28185269282688, 917.1533602116416, 1514, 2.96600113779811
79.44106307863517, 919.333030743465, 1529, 2.99576497923409
59.6054916413733, 921.8923481831901, 1549, 3.013274936857796
43.75064119819068, 924.0426312864841, 1565, 3.006792082503755
26.90230629539311, 926.3083786252608, 1582, 3.007915629290808
11.02528645454284, 928.2883384665825, 1598, 3.017527133715975
-5.858347210036914, 930.2740157516087, 1615, 3.024520863448017
-21.78589117993203, 931.7949835642391, 1631, 3.046388411003325
-38.67674492770832, 933.71827752805, 1648, 3.028214968380612
-54.49676009214306, 936.111417765699, 1664, 2.991458007929684
-71.23501226812422, 939.0831031617768, 1681, 2.965884914597653
-85.98740375712872, 941.797314899123, 1696, 2.959642936128366
-103.8308373790636, 944.1662548687301, 1714, 3.009601964308922
-118.7507819865565, 945.7139153319275, 1729, 3.038231343195546
-135.6342443058628, 947.7010489742788, 1746, 3.024434604486048
-151.5576384292619, 949.2648646894132, 1762, 3.043697885749054
-169.5273775545895, 950.3081651100349, 1780, 3.083599016611767
-185.5252773990737, 950.0489343906908, 1796, 3.157795282472507
-202.5238461657151, 950.2695242494006, 1813, 3.128616415388652
-217.4672536445872, 951.5712818767597, 1828, 3.054699506427176
-233.1609665468796, 954.6869479918017, 1844, 2.945611365214532
-248.5170458562364, 959.1803685424228, 1860, 2.856924699146735
-263.7731818610655, 964.0022265040553, 1876, 2.835467590846007
-281.6027388444538, 966.47344033052, 1894, 3.003868014062126
-300.6016196814459, 966.6796609448522, 1913, 3.130738723934346
-318.5658924214987, 965.5461244783044, 1931, 3.204608599604212
-335.5272677993572, 964.4008099837752, 1948, 3.20901516432025
-354.5188735845117, 963.8360890781199, 1967, 3.17131918438282
-370.4675896837467, 965.1161104787233, 1983, 3.061505731717568
-386.0835016007591, 968.6008335667333, 1999, 2.922037791010817
-403.5870565093505, 975.9917445770165, 2018, 2.742051890200341
-417.9384657234472, 983.0654319866733, 2034, 2.683648010208682
-436.7497738198661, 989.857684021279, 2054, 2.79508766478213
-453.5504696972102, 992.4531835949635, 2071, 2.988316748019504
-469.504188118959, 993.6692709765079, 2087, 3.065513822913641
-484.4470881032473, 994.9768412650799, 2102, 3.054310521528541
-500.2846240450658, 997.2511445191799, 2118, 2.998965627515854
-516.0268798484253, 1000.111456079411, 2134, 2.961857019423725
-531.9480278817142, 1001.697975950733, 2150, 3.042271948944571
-549.9173488186051, 1002.748454445047, 2168, 3.083199558552262
-565.7940591153504, 1004.730894898938, 2184, 3.01737089301271
-582.5186623854706, 1007.778458755051, 2201, 2.961349836585073
-597.34932902172, 1010.02597452239, 2216, 2.991191889413014
-613.2502798513825, 1011.80354666232, 2232, 3.030264571682755
-630.1388893203446, 1013.746449183005, 2249, 3.027053993468417
-645.9670907551287, 1016.084833099281, 2265, 2.994918314551712
-660.74291702374, 1018.668427123081, 2280, 2.968489854197413
-675.5383741130281, 1021.137121012374, 2295, 2.976260876840704
-693.3741768302968, 1023.56284594127, 2313, 3.006418885455798
-709.2743465252952, 1025.34739172949, 2329, 3.029825992911733
-726.1608388132345, 1027.308610281658, 2346, 3.025969405784863
-742.9933196418456, 1029.68928017781, 2363, 3.001091441165459
-762.8547995163313, 1032.039092339537, 2383, 3.023830044906594
-779.728701100789, 1034.105839861136, 2400, 3.019717782884234
-794.5517169890982, 1036.403273206183, 2415, 2.98782518913786
-811.1533352896757, 1040.061998366936, 2432, 2.92467644389433
-827.5166293164965, 1044.670968815074, 2449, 2.867040481668499
-843.7855383170026, 1049.602763613446, 2466, 2.847255496927284
-858.8572805955714, 1054.97329288796, 2482, 2.799288900056477
-874.5759669460043, 1061.448082414787, 2499, 2.750855651014689
-890.0041699819912, 1068.587448708819, 2516, 2.708188408425983
-904.4336656041805, 1075.500455007762, 2532, 2.694813707899171
-919.4045875792998, 1083.554739284772, 2549, 2.648012868361047
-933.1722711566048, 1091.706480749956, 2565, 2.607007819171854
-947.2286517166859, 1101.267765472742, 2582, 2.544272696822753
-961.7197492904241, 1111.945222618917, 2600, 2.506574581388898
-973.6314042184064, 1121.061827078729, 2615, 2.48833868278055
-986.7424536544751, 1131.883120101514, 2632, 2.451580379652716
-998.6275674676317, 1142.59498593564, 2648, 2.40806847689573
-1012.266119125442, 1155.823361069315, 2667, 2.371460272682043
-1023.534112827651, 1167.182600389225, 2683, 2.352161954573884
-1035.449292400392, 1180.674394033857, 2701, 2.294219574583983
-1045.681695594837, 1192.974716178675, 2717, 2.264676823350969
-1056.114520955408, 1206.396942335161, 2734, 2.231529146853416
-1064.833088608553, 1218.602948155147, 2749, 2.191045382445106
-1073.479527041681, 1232.065455441017, 2765, 2.141711611970292
-1082.106045727662, 1246.714113241663, 2782, 2.103010234136648
-1090.889025632227, 1262.42586884045, 2800, 2.080528320156122
-1099.343804716372, 1278.316643228072, 2818, 2.059758525960149
-1106.655791720925, 1293.663787784805, 2835, 2.015418570373245
-1112.889983861008, 1308.399283988208, 2851, 1.971033745842478
-1119.228953059516, 1325.246167067887, 2869, 1.930679566700546
-1125.043517260283, 1341.220860903926, 2886, 1.919876059379718
-1130.471998333164, 1358.382783676196, 2904, 1.877148096454246
-1134.57370425476, 1373.848099985045, 2920, 1.830047291976043
-1137.533110087787, 1389.572028155685, 2936, 1.756830401552692
-1139.749548094713, 1406.426920696471, 2953, 1.701547263569977
-1141.112348439391, 1422.36877677475, 2969, 1.656074673750399
-1142.360984973847, 1440.325416404837, 2987, 1.640220777849634
-1142.849654774025, 1459.319131202801, 3006, 1.596518626337826
-1141.573114048113, 1478.27619964112, 3025, 1.503559323244666
-1139.03837115226, 1496.096835949959, 3043, 1.42950766720033
-1136.274075764732, 1511.856235399509, 3059, 1.397156618357166
-1132.270047189691, 1529.405245490402, 3077, 1.346473679119256
-1127.280583275183, 1546.699905066289, 3095, 1.289925517490238
-1121.26319580955, 1563.664310392985, 3113, 1.22993466528716
-1114.960832718494, 1577.276078076445, 3128, 1.137177407222265
-1105.112570018093, 1593.524515594678, 3147, 1.025899787321172
-1096.189084550053, 1606.805005310862, 3163, 0.9791625616009046
-1085.781887777939, 1620.247112859401, 3180, 0.9119715072074024
-1073.801916109221, 1633.681407735453, 3198, 0.8425604994977515
-1060.749141274901, 1646.075965780198, 3216, 0.7595380836772949
-1048.178663625248, 1657.52075025434, 3233, 0.7385583743852344
-1035.64300387928, 1669.003660805822, 3250, 0.7415955638525027
-1022.659781647668, 1679.977991787006, 3267, 0.7017417604507101
-1010.005596391462, 1689.769395950945, 3283, 0.6585399367555443
-996.7727913605684, 1700.441456249424, 3300, 0.6786827907567266
-984.650536044021, 1710.884201388535, 3316, 0.7111052750948195
-972.4518428539021, 1721.237552751903, 3332, 0.703754133082052
-959.0112137992916, 1731.646658891066, 3349, 0.6589668711259029
-945.2489224879601, 1741.6266056776, 3366, 0.6274170413435211
-932.2124000844445, 1750.902870207174, 3382, 0.618442122579104
-918.5379863375182, 1761.002890438732, 3399, 0.6361697452998055
-902.8058020868453, 1773.351913829384, 3419, 0.665498290841083
-890.247588198759, 1783.266108902161, 3435, 0.6682803773463808
-875.8457320671159, 1794.06363361681, 3453, 0.6433292250553901
-862.7795290840581, 1803.298044242591, 3469, 0.6152352644978355
-849.9405593255741, 1812.845863655459, 3485, 0.6394307022536232
-836.7121351242524, 1823.523353676521, 3502, 0.6790931815560237
-823.3653039179432, 1834.052460796799, 3519, 0.667926300442833
-809.1350100782364, 1845.075107359018, 3537, 0.6590540105831516
-795.6281132678706, 1855.398078760419, 3554, 0.6525741176796189
-782.7116207744406, 1864.840759612124, 3570, 0.6312663776438288
-767.9931449924953, 1875.202538931155, 3588, 0.613404231155274
-753.5499262354723, 1885.944672422077, 3606, 0.6394886279444369
-738.1977538819431, 1897.138903258875, 3625, 0.6300312939695552
-724.9577946457442, 1906.122414789662, 3641, 0.5961605332251159
-710.2434154137309, 1914.63634712534, 3658, 0.5245453682568431
-693.9836642883538, 1922.357777908608, 3676, 0.443350431109984
-677.2260937746323, 1928.929218426306, 3694, 0.3737187638307444
-663.041630564535, 1933.807845634999, 3709, 0.331267433869852
-646.6532493641101, 1938.326801446861, 3726, 0.2690553899090715
-631.9717163054876, 1941.401307431336, 3741, 0.2064300583727046
-614.0638132943185, 1943.219825988448, 3759, 0.1012014667544161
-598.067703161009, 1943.572615731822, 3775, 0.02205114599022417
-581.0760982810873, 1943.038421380838, 3792, -0.03142837071734261
-563.1419075693486, 1941.50062961503, 3810, -0.0855371446159875
-545.2737308966686, 1939.326172810701, 3828, -0.121098923771948
-529.5103289510324, 1936.584793759874, 3844, -0.1721857556385563
-513.9193618697433, 1932.990110815558, 3860, -0.2266019883901147
-496.7398948229935, 1927.617410192069, 3878, -0.3031031882460433
-481.8063512353783, 1921.87378103301, 3894, -0.3671714157786385
-465.1762873266232, 1914.986040155863, 3912, -0.3926653530645029
-451.5971654396983, 1908.613642743583, 3927, -0.4387702160151274
-434.6481680887996, 1900.026938556339, 3946, -0.4689297209700092
-419.0001960609985, 1891.130817411865, 3964, -0.5169476650248868
-405.6397308531006, 1882.327524310499, 3980, -0.5826106988997135
-390.9099245930552, 1871.981858186874, 3998, -0.6123098926961255
-376.3789108171213, 1861.358787131684, 4016, -0.6312701693231935
-361.5252383474122, 1849.511069454317, 4035, -0.6732934452717794
-348.5619499515213, 1838.513199025686, 4052, -0.7035562195374765
-337.6448538217704, 1826.816318582859, 4068, -0.8198669118251697
-325.3014053878022, 1812.371967411623, 4087, -0.8636655509069186
-313.475521019169, 1798.801836281096, 4105, -0.8539723790021263
-301.6763516125077, 1785.208470203744, 4123, -0.8559393535160563
-290.4922577666509, 1771.104710249495, 4141, -0.9003464504735312
-280.3450622940007, 1756.237483741507, 4159, -0.9718977566268325
-270.7644235536098, 1740.999000833877, 4177, -1.009531140802751
-262.229742430751, 1726.296646664183, 4194, -1.044840279557694
-254.0225348337642, 1710.276604733528, 4212, -1.097350278501252
-246.6710301943751, 1694.948350444893, 4229, -1.123597581233686
-239.597516744253, 1678.396450026181, 4247, -1.166933889060781
-234.0889712311826, 1663.374601726773, 4263, -1.219320170217499
-228.8924613144159, 1647.188302437407, 4280, -1.260146888531521
-223.7428532053469, 1629.940649370308, 4298, -1.280653234603701
-218.6042602020394, 1610.612047197715, 4318, -1.310952473481812
-214.7013925019521, 1593.040262322079, 4336, -1.352234402661573
-211.9971372462362, 1576.256728620504, 4353, -1.411043851522727
-210.2251002860056, 1559.349337189192, 4370, -1.466369165081085
-209.8128923085822, 1541.35405768085, 4388, -1.547893881517816
-210.0322544336446, 1523.355394389981, 4406, -1.58298341319967
-210.9283991852954, 1508.382187499535, 4421, -1.630574906790498
-212.4851964740603, 1490.449636587808, 4439, -1.657393256622334
-214.2379632354931, 1470.526589414245, 4459, -1.658547238439674
-215.9047459592354, 1452.603926795319, 4477, -1.663528213253772
-218.0064708062876, 1432.714664549895, 4497, -1.676076949963527
-220.219468399705, 1414.851220266904, 4515, -1.694052486824903
-222.3975192676539, 1397.991324228771, 4532, -1.699270095359431
-225.0323312356581, 1379.174901457871, 4551, -1.709918996041093
-227.6072741669471, 1360.350192458776, 4570, -1.706737955332942
-230.2255900322598, 1340.522322627918, 4590, -1.702088993767638
-232.7799407231899, 1322.70448626803, 4608, -1.713185358634993
-234.9031230947346, 1306.84598392332, 4624, -1.703887792865534
-237.1711868462901, 1288.989447674123, 4642, -1.697135697604705
-239.4535557097949, 1270.127030215831, 4661, -1.691211794657076
-242.0056322998121, 1251.299207583389, 4680, -1.705523357670057
-244.7563063253929, 1231.48926582666, 4700, -1.708767347744854
-247.2438283773517, 1212.652805595475, 4719, -1.702095469499175
-249.8028248777519, 1194.83563587324, 4737, -1.713446102771421
-252.1769235949832, 1179.012751961612, 4753, -1.719727446945316
-254.7440793312585, 1161.196756019041, 4771, -1.713904060159162
-257.682875670572, 1140.40340429124, 4792, -1.711199854463417
-260.2109121911899, 1123.592424803108, 4809, -1.720057974715721
-262.40036696324, 1107.74293623719, 4825, -1.708067957051262
-263.442964329919, 1078.761683836181, 4854, -1.606755709337193
-263.0635318826686, 1058.76528338465, 4874, -1.551823566195862
-262.7060818233768, 1041.769041757305, 4891, -1.549768303065683
-263.4838358776653, 1025.787956104852, 4907, -1.619425118820876
-265.9678033208525, 1009.981947571981, 4923, -1.726674783735097
-270.3066763146225, 994.5814871521128, 4939, -1.845414629522115
-276.2114372861599, 978.6399126417638, 4956, -1.925528131838387
-281.0449448544339, 961.3010198112674, 4974, -1.842661112675378
-283.5349613641698, 943.4740790254443, 4992, -1.709575622988502
-284.5145038803476, 926.5023231805413, 5009, -1.628448406466294
-285.3230297317313, 910.5227648028, 5025, -1.621350723796658
-286.2754467773683, 895.5530319470949, 5040, -1.63433353758729
-289.4910586651683, 877.8425875656842, 5058, -1.750405558533886
-294.0856676914837, 861.4752552266834, 5075, -1.844470946252606
-296.7107831775605, 843.6677071449076, 5093, -1.71715807096838
-298.442002210131, 826.7560874512986, 5110, -1.672809585412069
-300.1347295943557, 810.8458808529322, 5126, -1.676790144790666
-302.3227761315606, 794.9961978166371, 5142, -1.707979107105147
-305.3741650281177, 778.2722919988573, 5159, -1.751267855962413
-307.7987967794815, 762.4570727189903, 5175, -1.722921885679823
-309.9738443071055, 745.5967889653705, 5192, -1.699091962245348
-311.915993711902, 729.715099644349, 5208, -1.692480741160418
-314.4541385417897, 713.9177004652906, 5224, -1.730103359167365
-316.9678835067732, 694.0763021715457, 5244, -1.696816869372217
-318.4502212124233, 678.1451165619808, 5260, -1.66357548284727
-319.8972219149715, 662.2106824971379, 5276, -1.661357607345228
-321.8303681410897, 644.3147906314485, 5294, -1.678400873321238
-324.3692947231757, 628.5175170752055, 5310, -1.73015284549722
-327.2847668191444, 612.7853836389029, 5326, -1.75403706340116
-329.4161766489839, 596.9279849828413, 5342, -1.704406615150297
-331.2779094637686, 582.0439683567302, 5357, -1.695232736849865
-333.6994286543361, 565.2173155460932, 5374, -1.713724771886535
-336.2599351379283, 548.4112509696529, 5391, -1.721989730096393
-338.6925694955342, 529.5676236627304, 5410, -1.699182118755221
-340.4902220546664, 511.657614023519, 5428, -1.670832678439304
